"Magnitude of electric impedance Z(f)"			
"Measured"		"Fitted"	
"Frequency [Hz]"	"[Ohm]"	"Frequency [Hz]"	"[Ohm]"
1.46484	3.11441	1.46484	3.13024
2.92969	3.15083	2.92969	3.13158
4.39453	3.17749	4.39453	3.13371
5.85938	3.16458	5.85938	3.13661
7.32422	3.20097	7.32422	3.14025
8.78906	3.17765	8.78906	3.14463
10.2539	3.21722	10.2539	3.14975
11.7188	3.21579	11.7188	3.1556
13.1836	3.24433	13.1836	3.16218
14.6484	3.24284	14.6484	3.1695
16.1133	3.26058	16.1133	3.17757
17.5781	3.25832	17.5781	3.18639
19.043	3.27785	19.043	3.19597
20.5078	3.29485	20.5078	3.20634
21.9727	3.31083	21.9727	3.21749
23.4375	3.32519	23.4375	3.22946
24.9023	3.35007	24.9023	3.24226
26.3672	3.3541	26.3672	3.25591
27.832	3.37717	27.832	3.27043
29.2969	3.389	29.2969	3.28586
30.7617	3.41038	30.7617	3.30222
32.2266	3.44267	32.2266	3.31954
33.6914	3.46078	33.6914	3.33785
35.1563	3.48263	35.1563	3.35719
36.6211	3.50658	36.6211	3.3776
38.0859	3.52179	38.0859	3.39913
39.5508	3.55293	39.5508	3.4218
41.0156	3.58597	41.0156	3.44568
42.4805	3.60864	42.4805	3.47082
43.9453	3.6365	43.9453	3.49726
45.4102	3.67996	45.4102	3.52508
46.875	3.68335	46.875	3.55432
48.3398	3.72673	48.3398	3.58507
49.8047	3.76771	49.8047	3.61739
51.2695	3.80424	51.2695	3.65137
52.7344	3.84233	52.7344	3.68707
54.1992	3.87311	54.1992	3.72461
55.6641	3.92868	55.6641	3.76406
57.1289	3.96758	57.1289	3.80555
58.5938	4.01557	58.5938	3.84917
60.0586	4.05653	60.0586	3.89504
61.5234	4.10536	61.5234	3.94331
62.9883	4.15366	62.9883	3.9941
64.4531	4.21444	64.4531	4.04757
65.918	4.27026	65.918	4.10387
67.3828	4.33384	67.3828	4.16319
68.8477	4.40694	68.8477	4.22571
70.3125	4.47489	70.3125	4.29163
71.7773	4.53849	71.7773	4.36119
74.707	4.67474	74.707	4.51217
76.1719	4.74675	76.1719	4.59414
77.6367	4.83383	77.6367	4.68084
79.1016	4.93177	79.1016	4.77261
80.5664	5.01337	80.5664	4.86982
83.4961	5.24314	83.4961	5.08224
84.9609	5.34198	84.9609	5.19837
86.4258	5.46697	86.4258	5.32184
89.3555	5.7157	89.3555	5.59319
90.8203	5.85762	90.8203	5.74248
93.75	6.17293	93.75	6.07233
95.2148	6.34366	95.2148	6.2548
98.1445	6.73725	98.1445	6.66047
99.6094	6.951	99.6094	6.88633
102.539	7.42882	102.539	7.39205
104.004	7.70469	104.004	7.67568
106.934	8.30159	106.934	8.31579
109.863	9.08246	109.863	9.07159
112.793	9.87937	112.793	9.97035
114.258	10.3719	114.258	10.4836
117.188	11.434	117.188	11.6615
120.117	12.8412	120.117	13.0751
123.047	14.45	123.047	14.7574
125.977	16.3369	125.977	16.7069
128.906	18.3586	128.906	18.8251
131.836	20.6254	131.836	20.8237
134.766	22.3462	134.766	22.1932
137.695	22.4531	137.695	22.435
142.09	20.8661	142.09	20.6906
145.02	18.8041	145.02	18.8036
147.949	16.4272	147.949	16.871
150.879	14.8378	150.879	15.1147
155.273	12.6094	155.273	12.9351
158.203	11.4005	158.203	11.7658
162.598	10.3104	162.598	10.3539
165.527	9.34903	165.527	9.59341
169.922	8.39795	169.922	8.65839
174.316	7.68587	174.316	7.91225
178.711	7.08268	178.711	7.30728
181.641	6.73065	181.641	6.96524
186.035	6.26881	186.035	6.52513
190.43	5.90723	190.43	6.15551
194.824	5.61726	194.824	5.84181
200.684	5.28733	200.684	5.49199
205.078	5.09168	205.078	5.27056
209.473	4.9176	209.473	5.07744
213.867	4.76338	213.867	4.90793
219.727	4.58895	219.727	4.71229
224.121	4.46116	224.121	4.58455
229.98	4.33487	229.98	4.43518
234.375	4.25548	234.375	4.33649
240.234	4.15041	240.234	4.21986
246.094	4.06211	246.094	4.11776
251.953	3.99549	251.953	4.02789
257.813	3.95215	257.813	3.94843
263.672	3.90886	263.672	3.87785
269.531	3.91028	269.531	3.81494
276.855	3.92927	276.855	3.74553
282.715	3.89607	282.715	3.69636
290.039	3.8001	290.039	3.64173
295.898	3.74018	295.898	3.60278
303.223	3.72412	303.223	3.55927
310.547	3.67175	310.547	3.52078
317.871	3.64621	317.871	3.48665
325.195	3.62429	325.195	3.45634
332.52	3.61288	332.52	3.42938
339.844	3.60267	339.844	3.40539
348.633	3.60128	348.633	3.38006
355.957	3.58581	355.957	3.36149
364.746	3.58249	364.746	3.3419
373.535	3.57211	373.535	3.32493
382.324	3.57391	382.324	3.31026
391.113	3.57933	391.113	3.29765
399.902	3.5862	399.902	3.28689
408.691	3.59314	408.691	3.27777
418.945	3.60373	418.945	3.26901
429.199	3.6243	429.199	3.26205
437.988	3.63211	437.988	3.25738
448.242	3.65004	448.242	3.25329
459.961	3.66209	459.961	3.25025
470.215	3.67951	470.215	3.24887
480.469	3.70182	480.469	3.24857
492.188	3.7192	492.188	3.24945
503.906	3.74943	503.906	3.2515
515.625	3.77872	515.625	3.25462
527.344	3.80028	527.344	3.25873
540.527	3.84258	540.527	3.26442
552.246	3.86328	552.246	3.27036
565.43	3.88519	565.43	3.27794
578.613	3.91892	578.613	3.28642
591.797	3.95018	591.797	3.29571
606.445	3.99848	606.445	3.30692
621.094	4.05209	621.094	3.31899
634.277	4.10241	634.277	3.33055
650.391	4.18261	650.391	3.34549
665.039	4.25058	665.039	3.35981
681.152	4.31993	681.152	3.3763
695.801	4.34787	695.801	3.39193
711.914	4.36783	711.914	3.40978
729.492	4.34189	729.492	3.42999
745.605	4.32965	745.605	3.44914
763.184	4.32057	763.184	3.47068
782.227	4.3105	782.227	3.49473
799.805	4.29773	799.805	3.51755
818.848	4.30135	818.848	3.5429
837.891	4.30823	837.891	3.56887
856.934	4.31609	856.934	3.59541
877.441	4.33509	877.441	3.62461
897.949	4.35825	897.949	3.65441
918.457	4.38051	918.457	3.68477
940.43	4.40778	940.43	3.71788
962.402	4.44083	962.402	3.75156
984.375	4.47621	984.375	3.78578
1007.81	4.51726	1007.81	3.82284
1031.25	4.55071	1031.25	3.86043
1056.15	4.58825	1056.15	3.90093
1079.59	4.6378	1079.59	3.93953
1105.96	4.67061	1105.96	3.98348
1130.86	4.72106	1130.86	4.02547
1157.23	4.75922	1157.23	4.0704
1185.06	4.80967	1185.06	4.11832
1212.89	4.86273	1212.89	4.16671
1240.72	4.91468	1240.72	4.21553
1270.02	4.96529	1270.02	4.26734
1299.32	5.02164	1299.32	4.31956
1330.08	5.08764	1330.08	4.37479
1360.84	5.14973	1360.84	4.43039
1393.07	5.2265	1393.07	4.48899
1425.29	5.30674	1425.29	4.54792
1458.98	5.38041	1458.98	4.60985
1492.68	5.46421	1492.68	4.67206
1527.83	5.55934	1527.83	4.73723
1562.99	5.63856	1562.99	4.80264
1599.61	5.66473	1599.61	4.87097
1637.7	5.70531	1637.7	4.94222
1675.78	5.74446	1675.78	5.01362
1715.33	5.8241	1715.33	5.08787
1754.88	5.92866	1754.88	5.16219
1795.9	6.00181	1795.9	5.23931
1838.38	6.07229	1838.38	5.31919
1880.86	6.1189	1880.86	5.39902
1924.8	6.1577	1924.8	5.48152
1970.21	6.20396	1970.21	5.56665
2015.63	6.23897	2015.63	5.65161
2062.5	6.29238	2062.5	5.73909
2110.84	6.34614	2110.84	5.82903
2160.64	6.40547	2160.64	5.92137
2210.45	6.47171	2210.45	6.01334
2261.72	6.5267	2261.72	6.10759
2315.92	6.60317	2315.92	6.20672
2370.12	6.67771	2370.12	6.30528
2424.32	6.78553	2424.32	6.40325
2481.45	6.88818	2481.45	6.50584
2540.04	6.9917	2540.04	6.6103
2598.63	7.11554	2598.63	6.71396
2660.16	7.19226	2660.16	6.8219
2721.68	7.26803	2721.68	6.9289
2784.67	7.30364	2784.67	7.03744
2850.59	7.31953	2850.59	7.14991
2916.5	7.33391	2916.5	7.26121
2985.35	7.34414	2985.35	7.37619
3055.66	7.32079	3055.66	7.49226
3125.98	7.36434	3125.98	7.60694
3199.22	7.44069	3199.22	7.72491
3273.93	7.56867	3273.93	7.84367
3351.56	7.66798	3351.56	7.96539
3429.2	7.69792	3429.2	8.08538
3509.77	7.79565	3509.77	8.20807
3591.8	7.8725	3591.8	8.33108
3675.29	7.99647	3675.29	8.45432
3761.72	8.06421	3761.72	8.57981
3849.61	8.1734	3849.61	8.70528
3938.96	8.27367	3938.96	8.83065
4031.25	8.38926	4031.25	8.95782
4125	8.49595	4125	9.08467
4221.68	8.6131	4221.68	9.21303
4319.82	8.71518	4319.82	9.34084
4420.9	8.83583	4420.9	9.4699
4524.9	8.95283	4524.9	9.60003
4630.37	9.07407	4630.37	9.72931
4738.77	9.19343	4738.77	9.85941
4850.1	9.31018	4850.1	9.99021
4962.89	9.44306	4962.89	10.1199
5078.61	9.58437	5078.61	10.2501
5197.27	9.70842	5197.27	10.3806
5318.85	9.80637	5318.85	10.5114
5443.36	9.96216	5443.36	10.6424
5570.8	10.0983	5570.8	10.7734
5701.17	10.1883	5701.17	10.9044
5834.47	10.3332	5834.47	11.0353
5970.7	10.4526	5970.7	11.1661
6109.86	10.6158	6109.86	11.2966
6253.42	10.7573	6253.42	11.4282
6398.44	10.9003	6398.44	11.5582
6549.32	11.0244	6549.32	11.6904
6701.66	11.1678	6701.66	11.8209
6858.4	11.3034	6858.4	11.9523
7018.07	11.449	7018.07	12.0832
7182.13	11.6381	7182.13	12.2149
7350.59	11.7674	7350.59	12.3474
7521.97	11.9372	7521.97	12.4794
7697.75	12.0982	7697.75	12.612
7877.93	12.2266	7877.93	12.7454
8062.5	12.4036	8062.5	12.8795
8251.46	12.5276	8251.46	13.0144
8443.36	12.7108	8443.36	13.1489
8641.11	12.915	8641.11	13.2853
8843.26	13.0457	8843.26	13.4224
9049.8	13.2427	9049.8	13.5605
9260.74	13.4258	9260.74	13.6995
9477.54	13.597	9477.54	13.8404
9698.73	13.7828	9698.73	13.9824
9925.78	13.9825	9925.78	14.1264
10158.7	14.1125	10158.7	14.2725
10396	14.3307	10396	14.42
10637.7	14.5485	10637.7	14.5688
10886.7	14.6882	10886.7	14.7208
11141.6	14.8744	11141.6	14.8753
11402.3	15.0248	11402.3	15.0323
11668.9	15.2535	11668.9	15.1919
11941.4	15.4429	11941.4	15.3543
12219.7	15.6945	12219.7	15.5195
12505.4	15.8564	12505.4	15.6885
12798.3	16.103	12798.3	15.8614
13097.2	16.2793	13097.2	16.0374
13403.3	16.4294	13403.3	16.2175
13716.8	16.6134	13716.8	16.4019
14037.6	16.829	14037.6	16.5906
14365.7	17.006	14365.7	16.7837
14701.2	17.204	14701.2	16.9815
15045.4	17.4624	15045.4	17.1847
15397	17.7378	15397	17.3927
15755.9	17.9024	15755.9	17.6057
16125	18.2163	16125	17.8254
16501.5	18.3772	16501.5	18.0502
16886.7	18.6549	16886.7	18.2812
17282.2	18.8344	17282.2	18.5192
17686.5	19.0535	17686.5	18.7636
